Scheme: MTL
Level(m)	Area(m2)
-9.0   3614051.0
-4.93	 3614051.0
-3.93	 8034023.0
-2.93	15410087.0
-1.93	23859663.0
-0.93	34349226.0
0.07	43141948.0
1.07	49743573.0
2.07	55942237.0
3.07	60869058.0
4.07	65714027.0
5.07	66538836.0
6.07	66538836.0
10    66538836.0
